Step	Temp
0	0.666667
1	0.666667
2	0.666667
3	0.666667
4	0.666667
5	0.666668
6	0.666668
7	0.666669
8	0.666669
9	0.66667
10	0.666671
11	0.666672
12	0.666673
13	0.666674
14	0.666675
15	0.666676
16	0.666678
17	0.666679
18	0.666681
19	0.666682
20	0.666684
21	0.666686
22	0.666688
23	0.66669
24	0.666692
25	0.666694
26	0.666696
27	0.666698
28	0.666701
29	0.666703
30	0.666706
31	0.666708
32	0.666711
33	0.666714
34	0.666717
35	0.66672
36	0.666723
37	0.666726
38	0.666729
39	0.666733
40	0.666736
41	0.66674
42	0.666743
43	0.666747
44	0.666751
45	0.666755
46	0.666758
47	0.666762
48	0.666767
49	0.666771
50	0.666775
51	0.666779
52	0.666784
53	0.666789
54	0.666793
55	0.666798
56	0.666803
57	0.666808
58	0.666813
59	0.666818
60	0.666823
61	0.666828
62	0.666833
63	0.666839
64	0.666844
65	0.66685
66	0.666856
67	0.666861
68	0.666867
69	0.666873
70	0.666879
71	0.666885
72	0.666892
73	0.666898
74	0.666904
75	0.666911
76	0.666917
77	0.666924
78	0.666931
79	0.666938
80	0.666945
81	0.666952
82	0.666959
83	0.666966
84	0.666973
85	0.666981
86	0.666988
87	0.666996
88	0.667003
89	0.667011
90	0.667019
91	0.667027
92	0.667035
93	0.667043
94	0.667051
95	0.667059
96	0.667068
97	0.667076
98	0.667085
99	0.667093
100	0.667102
101	0.667111
102	0.66712
103	0.667129
104	0.667138
105	0.667147
106	0.667156
107	0.667166
108	0.667175
109	0.667185
110	0.667194
111	0.667204
112	0.667214
113	0.667224
114	0.667234
115	0.667244
116	0.667254
117	0.667264
118	0.667275
119	0.667285
120	0.667296
121	0.667306
122	0.667317
123	0.667328
124	0.667339
125	0.66735
126	0.667362
127	0.667373
128	0.667385
129	0.667396
130	0.667408
131	0.66742
132	0.667431
133	0.667443
134	0.667456
135	0.667468
136	0.66748
137	0.667492
138	0.667505
139	0.667517
140	0.66753
141	0.667543
142	0.667555
143	0.667568
144	0.667581
145	0.667594
146	0.667608
147	0.667621
148	0.667634
149	0.667648
150	0.667661
151	0.667675
152	0.667689
153	0.667703
154	0.667717
155	0.667731
156	0.667745
157	0.667759
158	0.667774
159	0.667788
160	0.667803
161	0.667818
162	0.667833
163	0.667848
164	0.667863
165	0.667879
166	0.667895
167	0.66791
168	0.667926
169	0.667942
170	0.667958
171	0.667974
172	0.667991
173	0.668007
174	0.668024
175	0.66804
176	0.668057
177	0.668074
178	0.66809
179	0.668107
180	0.668125
181	0.668142
182	0.668159
183	0.668177
184	0.668194
185	0.668212
186	0.668229
187	0.668247
188	0.668265
189	0.668283
190	0.668302
191	0.66832
192	0.668338
193	0.668357
194	0.668375
195	0.668394
196	0.668413
197	0.668432
198	0.668451
199	0.66847
200	0.668489
201	0.668509
202	0.668528
203	0.668548
204	0.668568
205	0.668588
206	0.668607
207	0.668628
208	0.668648
209	0.668668
210	0.668688
211	0.668709
212	0.66873
213	0.66875
214	0.668771
215	0.668792
216	0.668813
217	0.668835
218	0.668856
219	0.668877
220	0.668899
221	0.668921
222	0.668943
223	0.668965
224	0.668987
225	0.669009
226	0.669031
227	0.669054
228	0.669076
229	0.669099
230	0.669122
231	0.669144
232	0.669167
233	0.669191
234	0.669214
235	0.669237
236	0.669261
237	0.669284
238	0.669308
239	0.669332
240	0.669356
241	0.66938
242	0.669405
243	0.669429
244	0.669454
245	0.669478
246	0.669503
247	0.669528
248	0.669553
249	0.669578
250	0.669604
251	0.669629
252	0.669655
253	0.66968
254	0.669706
255	0.669732
256	0.669759
257	0.669785
258	0.669811
259	0.669838
260	0.669865
261	0.669892
262	0.669919
263	0.669946
264	0.669974
265	0.670001
266	0.670029
267	0.670056
268	0.670084
269	0.670112
270	0.67014
271	0.670169
272	0.670197
273	0.670226
274	0.670255
275	0.670283
276	0.670312
277	0.670342
278	0.670371
279	0.6704
280	0.67043
281	0.67046
282	0.67049
283	0.67052
284	0.67055
285	0.67058
286	0.670611
287	0.670641
288	0.670672
289	0.670703
290	0.670734
291	0.670765
292	0.670797
293	0.670828
294	0.67086
295	0.670892
296	0.670924
297	0.670956
298	0.670989
299	0.671021
300	0.671054
301	0.671087
302	0.67112
303	0.671153
304	0.671186
305	0.67122
306	0.671254
307	0.671287
308	0.671321
309	0.671356
310	0.67139
311	0.671424
312	0.671459
313	0.671494
314	0.671529
315	0.671564
316	0.671599
317	0.671634
318	0.67167
319	0.671706
320	0.671742
321	0.671778
322	0.671814
323	0.671851
324	0.671887
325	0.671924
326	0.671961
327	0.671998
328	0.672036
329	0.672073
330	0.672111
331	0.672149
332	0.672187
333	0.672225
334	0.672263
335	0.672302
336	0.672341
337	0.67238
338	0.672419
339	0.672458
340	0.672498
341	0.672537
342	0.672577
343	0.672617
344	0.672658
345	0.672698
346	0.672739
347	0.67278
348	0.672821
349	0.672862
350	0.672903
351	0.672945
352	0.672987
353	0.673029
354	0.673071
355	0.673113
356	0.673156
357	0.673199
358	0.673242
359	0.673285
360	0.673328
361	0.673372
362	0.673416
363	0.67346
364	0.673504
365	0.673548
366	0.673593
367	0.673638
368	0.673683
369	0.673728
370	0.673774
371	0.673819
372	0.673865
373	0.673912
374	0.673958
375	0.674005
376	0.674051
377	0.674098
378	0.674146
379	0.674193
380	0.674241
381	0.674289
382	0.674337
383	0.674385
384	0.674434
385	0.674483
386	0.674532
387	0.674581
388	0.674631
389	0.674681
390	0.674731
391	0.674781
392	0.674831
393	0.674882
394	0.674933
395	0.674984
396	0.675036
397	0.675088
398	0.67514
399	0.675192
400	0.675244
401	0.675297
402	0.67535
403	0.675404
404	0.675457
405	0.675511
406	0.675565
407	0.675619
408	0.675674
409	0.675729
410	0.675784
411	0.675839
412	0.675895
413	0.675951
414	0.676007
415	0.676063
416	0.67612
417	0.676177
418	0.676234
419	0.676292
420	0.67635
421	0.676408
422	0.676466
423	0.676525
424	0.676584
425	0.676643
426	0.676703
427	0.676763
428	0.676823
429	0.676883
430	0.676944
431	0.677005
432	0.677067
433	0.677128
434	0.67719
435	0.677253
436	0.677315
437	0.677378
438	0.677442
439	0.677505
440	0.677569
441	0.677633
442	0.677698
443	0.677763
444	0.677828
445	0.677893
446	0.677959
447	0.678025
448	0.678092
449	0.678159
450	0.678226
451	0.678294
452	0.678362
453	0.67843
454	0.678498
455	0.678567
456	0.678637
457	0.678706
458	0.678777
459	0.678847
460	0.678918
461	0.67899
462	0.679061
463	0.679133
464	0.679206
465	0.679279
466	0.679352
467	0.679426
468	0.6795
469	0.679574
470	0.679649
471	0.679724
472	0.679799
473	0.679875
474	0.679952
475	0.680029
476	0.680106
477	0.680183
478	0.680261
479	0.68034
480	0.680419
481	0.680498
482	0.680578
483	0.680658
484	0.680738
485	0.680819
486	0.680901
487	0.680983
488	0.681065
489	0.681148
490	0.681231
491	0.681314
492	0.681399
493	0.681483
494	0.681568
495	0.681654
496	0.68174
497	0.681826
498	0.681913
499	0.682001
500	0.682089
501	0.682177
502	0.682266
503	0.682355
504	0.682445
505	0.682536
506	0.682627
507	0.682718
508	0.68281
509	0.682902
510	0.682995
511	0.683089
512	0.683183
513	0.683278
514	0.683373
515	0.683468
516	0.683565
517	0.683661
518	0.683759
519	0.683857
520	0.683955
521	0.684054
522	0.684154
523	0.684254
524	0.684355
525	0.684456
526	0.684558
527	0.684661
528	0.684764
529	0.684868
530	0.684972
531	0.685077
532	0.685183
533	0.685289
534	0.685396
535	0.685504
536	0.685612
537	0.685721
538	0.68583
539	0.685941
540	0.686051
541	0.686163
542	0.686275
543	0.686388
544	0.686502
545	0.686616
546	0.686731
547	0.686847
548	0.686964
549	0.687081
550	0.687199
551	0.687318
552	0.687437
553	0.687558
554	0.687679
555	0.6878
556	0.687923
557	0.688046
558	0.68817
559	0.688295
560	0.688421
561	0.688547
562	0.688675
563	0.688803
564	0.688932
565	0.689061
566	0.689192
567	0.689323
568	0.689456
569	0.689589
570	0.689723
571	0.689858
572	0.689993
573	0.69013
574	0.690268
575	0.690406
576	0.690545
577	0.690686
578	0.690827
579	0.690969
580	0.691112
581	0.691256
582	0.691402
583	0.691548
584	0.691695
585	0.691843
586	0.691992
587	0.692142
588	0.692293
589	0.692445
590	0.692598
591	0.692752
592	0.692907
593	0.693064
594	0.693221
595	0.693379
596	0.693539
597	0.6937
598	0.693862
599	0.694025
600	0.694189
601	0.694354
602	0.69452
603	0.694688
604	0.694857
605	0.695027
606	0.695198
607	0.69537
608	0.695544
609	0.695719
610	0.695895
611	0.696072
612	0.696251
613	0.696431
614	0.696613
615	0.696795
616	0.696979
617	0.697165
618	0.697351
619	0.697539
620	0.697729
621	0.69792
622	0.698112
623	0.698306
624	0.698501
625	0.698698
626	0.698896
627	0.699095
628	0.699297
629	0.699499
630	0.699703
631	0.699909
632	0.700117
633	0.700326
634	0.700536
635	0.700748
636	0.700962
637	0.701177
638	0.701394
639	0.701613
640	0.701834
641	0.702056
642	0.70228
643	0.702505
644	0.702733
645	0.702962
646	0.703193
647	0.703426
648	0.703661
649	0.703897
650	0.704136
651	0.704376
652	0.704618
653	0.704863
654	0.705109
655	0.705357
656	0.705607
657	0.705859
658	0.706114
659	0.70637
660	0.706628
661	0.706889
662	0.707151
663	0.707416
664	0.707683
665	0.707952
666	0.708224
667	0.708498
668	0.708774
669	0.709052
670	0.709332
671	0.709615
672	0.709901
673	0.710189
674	0.710479
675	0.710771
676	0.711066
677	0.711364
678	0.711664
679	0.711967
680	0.712272
681	0.71258
682	0.712891
683	0.713204
684	0.71352
685	0.713839
686	0.714161
687	0.714485
688	0.714813
689	0.715143
690	0.715476
691	0.715812
692	0.716151
693	0.716493
694	0.716838
695	0.717186
696	0.717537
697	0.717892
698	0.718249
699	0.71861
700	0.718974
701	0.719341
702	0.719712
703	0.720085
704	0.720463
705	0.720843
706	0.721228
707	0.721615
708	0.722007
709	0.722401
710	0.7228
711	0.723202
712	0.723608
713	0.724017
714	0.724431
715	0.724848
716	0.725269
717	0.725694
718	0.726123
719	0.726556
720	0.726993
721	0.727434
722	0.72788
723	0.728329
724	0.728783
725	0.729241
726	0.729704
727	0.730171
728	0.730642
729	0.731118
730	0.731599
731	0.732084
732	0.732573
733	0.733068
734	0.733567
735	0.734071
736	0.73458
737	0.735094
738	0.735613
739	0.736137
740	0.736666
741	0.7372
742	0.73774
743	0.738285
744	0.738835
745	0.73939
746	0.739952
747	0.740518
748	0.74109
749	0.741668
750	0.742252
751	0.742842
752	0.743437
753	0.744038
754	0.744646
755	0.745259
756	0.745879
757	0.746505
758	0.747137
759	0.747775
760	0.74842
761	0.749072
762	0.74973
763	0.750394
764	0.751066
765	0.751744
766	0.752429
767	0.753121
768	0.75382
769	0.754527
770	0.75524
771	0.755961
772	0.756689
773	0.757424
774	0.758167
775	0.758918
776	0.759676
777	0.760442
778	0.761216
779	0.761998
780	0.762788
781	0.763586
782	0.764392
783	0.765207
784	0.766029
785	0.766861
786	0.7677
787	0.768548
788	0.769405
789	0.770271
790	0.771146
791	0.772029
792	0.772921
793	0.773823
794	0.774734
795	0.775654
796	0.776583
797	0.777522
798	0.77847
799	0.779427
800	0.780395
801	0.781372
802	0.782358
803	0.783355
804	0.784362
805	0.785378
806	0.786405
807	0.787441
808	0.788488
809	0.789545
810	0.790612
811	0.79169
812	0.792778
813	0.793876
814	0.794985
815	0.796104
816	0.797233
817	0.798373
818	0.799524
819	0.800685
820	0.801857
821	0.803039
822	0.804232
823	0.805435
824	0.806648
825	0.807872
826	0.809107
827	0.810351
828	0.811606
829	0.812871
830	0.814146
831	0.815431
832	0.816725
833	0.81803
834	0.819343
835	0.820666
836	0.821999
837	0.82334
838	0.82469
839	0.826048
840	0.827414
841	0.828788
842	0.83017
843	0.831559
844	0.832955
845	0.834357
846	0.835765
847	0.837178
848	0.838596
849	0.840019
850	0.841446
851	0.842875
852	0.844308
853	0.845742
854	0.847176
855	0.848612
856	0.850046
857	0.851479
858	0.852909
859	0.854335
860	0.855756
861	0.857172
862	0.85858
863	0.859979
864	0.861369
865	0.862746
866	0.864111
867	0.86546
868	0.866793
869	0.868107
870	0.869401
871	0.870671
872	0.871917
873	0.873135
874	0.874324
875	0.87548
876	0.8766
877	0.877683
878	0.878724
879	0.879721
880	0.880671
881	0.881569
882	0.882412
883	0.883196
884	0.883918
885	0.884573
886	0.885157
887	0.885665
888	0.886092
889	0.886434
890	0.886685
891	0.886841
892	0.886896
893	0.886844
894	0.886679
895	0.886396
896	0.885989
897	0.885451
898	0.884777
899	0.883959
900	0.882992
901	0.881868
902	0.880582
903	0.879127
904	0.877496
905	0.875683
906	0.873683
907	0.871488
908	0.869092
909	0.866492
910	0.86368
911	0.860653
912	0.857406
913	0.853935
914	0.850237
915	0.84631
916	0.842152
917	0.837762
918	0.833141
919	0.82829
920	0.82321
921	0.817906
922	0.812383
923	0.806645
924	0.800701
925	0.794559
926	0.78823
927	0.781725
928	0.775057
929	0.768241
930	0.761293
931	0.754228
932	0.747067
933	0.739828
934	0.732531
935	0.725198
936	0.71785
937	0.71051
938	0.7032
939	0.695944
940	0.688762
941	0.681678
942	0.674714
943	0.667889
944	0.661224
945	0.654737
946	0.648447
947	0.642369
948	0.636518
949	0.630908
950	0.62555
951	0.620455
952	0.615631
953	0.611086
954	0.606825
955	0.602855
956	0.599178
957	0.595799
958	0.592719
959	0.58994
960	0.587464
961	0.585292
962	0.583425
963	0.581865
964	0.580611
965	0.579667
966	0.579032
967	0.578709
968	0.5787
969	0.579006
970	0.579628
971	0.58057
972	0.581832
973	0.583415
974	0.58532
975	0.587548
976	0.590096
977	0.592965
978	0.59615
979	0.599648
980	0.603455
981	0.607562
982	0.611964
983	0.61665
984	0.62161
985	0.626832
986	0.632303
987	0.638007
988	0.643929
989	0.650052
990	0.656359
991	0.662829
992	0.669444
993	0.676185
994	0.683029
995	0.689958
996	0.69695
997	0.703985
998	0.711043
999	0.718104
1000	0.725148
1001	0.732158
1002	0.739115
1003	0.746002
1004	0.752803
1005	0.759504
1006	0.766089
1007	0.772547
1008	0.778866
1009	0.785034
1010	0.791043
1011	0.796883
1012	0.802548
1013	0.808031
1014	0.813327
1015	0.818432
1016	0.823342
1017	0.828056
1018	0.832572
1019	0.836888
1020	0.841005
1021	0.844924
1022	0.848646
1023	0.852173
1024	0.855507
1025	0.858652
1026	0.86161
1027	0.864386
1028	0.866982
1029	0.869404
1030	0.871656
1031	0.873743
1032	0.875669
1033	0.877439
1034	0.879059
1035	0.880534
1036	0.881868
1037	0.883067
1038	0.884136
1039	0.885081
1040	0.885905
1041	0.886615
1042	0.887215
1043	0.887709
1044	0.888104
1045	0.888403
1046	0.88861
1047	0.888731
1048	0.88877
1049	0.88873
1050	0.888616
1051	0.888432
1052	0.888181
1053	0.887867
1054	0.887494
1055	0.887065
1056	0.886583
1057	0.886051
1058	0.885472
1059	0.884849
1060	0.884185
1061	0.883482
1062	0.882743
1063	0.88197
1064	0.881166
1065	0.880331
1066	0.879469
1067	0.878582
1068	0.87767
1069	0.876736
1070	0.875781
1071	0.874807
1072	0.873815
1073	0.872806
1074	0.871782
1075	0.870743
1076	0.869691
1077	0.868626
1078	0.867549
1079	0.866461
1080	0.865363
1081	0.864255
1082	0.863137
1083	0.86201
1084	0.860875
1085	0.859731
1086	0.858578
1087	0.857418
1088	0.856249
1089	0.855071
1090	0.853885
1091	0.85269
1092	0.851486
1093	0.850272
1094	0.849048
1095	0.847814
1096	0.846568
1097	0.845311
1098	0.84404
1099	0.842756
1100	0.841457
1101	0.840143
1102	0.838812
1103	0.837463
1104	0.836095
1105	0.834706
1106	0.833296
1107	0.831862
1108	0.830403
1109	0.828917
1110	0.827403
1111	0.82586
1112	0.824284
1113	0.822675
1114	0.82103
1115	0.819349
1116	0.817627
1117	0.815865
1118	0.81406
1119	0.81221
1120	0.810313
1121	0.808368
1122	0.806372
1123	0.804325
1124	0.802224
1125	0.80007
1126	0.797859
1127	0.795593
1128	0.793269
1129	0.790888
1130	0.78845
1131	0.785955
1132	0.783404
1133	0.780798
1134	0.778139
1135	0.775429
1136	0.772672
1137	0.76987
1138	0.767028
1139	0.764151
1140	0.761244
1141	0.758313
1142	0.755365
1143	0.752408
1144	0.749451
1145	0.746501
1146	0.74357
1147	0.740666
1148	0.737801
1149	0.734986
1150	0.732233
1151	0.729553
1152	0.726958
1153	0.72446
1154	0.722071
1155	0.719801
1156	0.717663
1157	0.715666
1158	0.713819
1159	0.712132
1160	0.710612
1161	0.709266
1162	0.708098
1163	0.707112
1164	0.706311
1165	0.705695
1166	0.705265
1167	0.705017
1168	0.704949
1169	0.705056
1170	0.70533
1171	0.705766
1172	0.706355
1173	0.707087
1174	0.707952
1175	0.708938
1176	0.710036
1177	0.711232
1178	0.712516
1179	0.713875
1180	0.715296
1181	0.716769
1182	0.718282
1183	0.719824
1184	0.721385
1185	0.722953
1186	0.724521
1187	0.72608
1188	0.727621
1189	0.729137
1190	0.730622
1191	0.732069
1192	0.733475
1193	0.734834
1194	0.736142
1195	0.737397
1196	0.738596
1197	0.739737
1198	0.740818
1199	0.741838
1200	0.742797
1201	0.743694
1202	0.74453
1203	0.745305
1204	0.74602
1205	0.746676
1206	0.747274
1207	0.747814
1208	0.7483
1209	0.748732
1210	0.749112
1211	0.749442
1212	0.749724
1213	0.74996
1214	0.750151
1215	0.750299
1216	0.750407
1217	0.750477
1218	0.750509
1219	0.750507
1220	0.750471
1221	0.750404
1222	0.750308
1223	0.750183
1224	0.750033
1225	0.749857
1226	0.749659
1227	0.749438
1228	0.749198
1229	0.748938
1230	0.748661
1231	0.748368
1232	0.748059
1233	0.747736
1234	0.747401
1235	0.747053
1236	0.746694
1237	0.746325
1238	0.745947
1239	0.745561
1240	0.745167
1241	0.744766
1242	0.74436
1243	0.743947
1244	0.74353
1245	0.743109
1246	0.742684
1247	0.742256
1248	0.741825
1249	0.741392
1250	0.740957
1251	0.740521
1252	0.740084
1253	0.739647
1254	0.739209
1255	0.738772
1256	0.738335
1257	0.737898
1258	0.737462
1259	0.737028
1260	0.736595
1261	0.736164
1262	0.735734
1263	0.735306
1264	0.734881
1265	0.734458
1266	0.734037
1267	0.733619
1268	0.733204
1269	0.732792
1270	0.732382
1271	0.731976
1272	0.731572
1273	0.731172
1274	0.730775
1275	0.730382
1276	0.729992
1277	0.729605
1278	0.729222
1279	0.728843
1280	0.728467
1281	0.728094
1282	0.727726
1283	0.727361
1284	0.726999
1285	0.726642
1286	0.726288
1287	0.725938
1288	0.725591
1289	0.725249
1290	0.72491
1291	0.724575
1292	0.724244
1293	0.723916
1294	0.723592
1295	0.723272
1296	0.722956
1297	0.722643
1298	0.722334
1299	0.722029
1300	0.721728
1301	0.72143
1302	0.721135
1303	0.720845
1304	0.720558
1305	0.720274
1306	0.719995
1307	0.719718
1308	0.719446
1309	0.719176
1310	0.718911
1311	0.718648
1312	0.71839
1313	0.718134
1314	0.717882
1315	0.717633
1316	0.717388
1317	0.717146
1318	0.716907
1319	0.716672
1320	0.716439
1321	0.71621
1322	0.715984
1323	0.715762
1324	0.715542
1325	0.715326
1326	0.715112
1327	0.714902
1328	0.714694
1329	0.71449
1330	0.714289
1331	0.714091
1332	0.713895
1333	0.713703
1334	0.713513
1335	0.713326
1336	0.713142
1337	0.712961
1338	0.712783
1339	0.712607
1340	0.712434
1341	0.712264
1342	0.712097
1343	0.711932
1344	0.71177
1345	0.711611
1346	0.711454
1347	0.711299
1348	0.711148
1349	0.710999
1350	0.710852
1351	0.710708
1352	0.710566
1353	0.710427
1354	0.71029
1355	0.710156
1356	0.710024
1357	0.709894
1358	0.709767
1359	0.709642
1360	0.709519
1361	0.709399
1362	0.709281
1363	0.709165
1364	0.709052
1365	0.70894
1366	0.708831
1367	0.708724
1368	0.70862
1369	0.708517
1370	0.708417
1371	0.708318
1372	0.708222
1373	0.708128
1374	0.708036
1375	0.707946
1376	0.707858
1377	0.707772
1378	0.707688
1379	0.707606
1380	0.707527
1381	0.707449
1382	0.707373
1383	0.707299
1384	0.707226
1385	0.707156
1386	0.707088
1387	0.707022
1388	0.706957
1389	0.706894
1390	0.706834
1391	0.706775
1392	0.706717
1393	0.706662
1394	0.706608
1395	0.706557
1396	0.706507
1397	0.706458
1398	0.706412
1399	0.706367
1400	0.706324
1401	0.706283
1402	0.706243
1403	0.706205
1404	0.706169
1405	0.706135
1406	0.706102
1407	0.706071
1408	0.706041
1409	0.706013
1410	0.705987
1411	0.705962
1412	0.705939
1413	0.705918
1414	0.705898
1415	0.705879
1416	0.705863
1417	0.705847
1418	0.705834
1419	0.705822
1420	0.705811
1421	0.705802
1422	0.705794
1423	0.705788
1424	0.705784
1425	0.705781
1426	0.705779
1427	0.705779
1428	0.70578
1429	0.705783
1430	0.705787
1431	0.705793
1432	0.7058
1433	0.705808
1434	0.705818
1435	0.70583
1436	0.705842
1437	0.705856
1438	0.705872
1439	0.705888
1440	0.705907
1441	0.705926
1442	0.705947
1443	0.705969
1444	0.705992
1445	0.706017
1446	0.706043
1447	0.70607
1448	0.706099
1449	0.706129
1450	0.70616
1451	0.706192
1452	0.706226
1453	0.706261
1454	0.706297
1455	0.706334
1456	0.706372
1457	0.706412
1458	0.706453
1459	0.706495
1460	0.706538
1461	0.706582
1462	0.706628
1463	0.706674
1464	0.706722
1465	0.706771
1466	0.706821
1467	0.706871
1468	0.706923
1469	0.706976
1470	0.707031
1471	0.707086
1472	0.707142
1473	0.707199
1474	0.707257
1475	0.707316
1476	0.707376
1477	0.707437
1478	0.707499
1479	0.707561
1480	0.707625
1481	0.70769
1482	0.707755
1483	0.707821
1484	0.707888
1485	0.707956
1486	0.708025
1487	0.708094
1488	0.708164
1489	0.708235
1490	0.708307
1491	0.708379
1492	0.708452
1493	0.708526
1494	0.7086
1495	0.708675
1496	0.708751
1497	0.708827
1498	0.708903
1499	0.70898
1500	0.709058
1501	0.709136
1502	0.709215
1503	0.709294
1504	0.709373
1505	0.709453
1506	0.709534
1507	0.709614
1508	0.709695
1509	0.709776
1510	0.709858
1511	0.70994
1512	0.710022
1513	0.710104
1514	0.710186
1515	0.710269
1516	0.710352
1517	0.710435
